# TOPAS Version: 4.0
# Parameter File: beam_model.txt
# Results for scorer: DoseAtFilm2
# Scored in component: Film2
# X in 100 bins of 0.169211 cm
# Y in 100 bins of 0.169211 cm
# Z in 1 bin  of 0.0278 cm
# DoseToMedium ( Gy ) : Sum   
0, 0, 0, 0
0, 1, 0, 0
0, 2, 0, 5.062938512878645e-08
0, 3, 0, 1.804107618852413e-08
0, 4, 0, 6.384855755214858e-09
0, 5, 0, 9.017810498335166e-09
0, 6, 0, 0
0, 7, 0, 0
0, 8, 0, 0
0, 9, 0, 0
0, 10, 0, 0
0, 11, 0, 1.749380906801434e-08
0, 12, 0, 1.832588836236937e-08
0, 13, 0, 0
0, 14, 0, 8.553478814121718e-09
0, 15, 0, 7.390996703549035e-09
0, 16, 0, 1.79996462179588e-08
0, 17, 0, 2.295196210866379e-08
0, 18, 0, 7.443968108589161e-09
0, 19, 0, 5.074852893471871e-08
0, 20, 0, 6.318594536480759e-09
0, 21, 0, 8.557138997389302e-09
0, 22, 0, 1.555951811837986e-08
0, 23, 0, 2.997192183329389e-08
0, 24, 0, 5.031277083844543e-08
0, 25, 0, 7.603871310379873e-09
0, 26, 0, 9.129474953795125e-09
0, 27, 0, 4.213601556557478e-08
0, 28, 0, 2.174388669118343e-08
0, 29, 0, 3.731730657818844e-08
0, 30, 0, 5.617631515519861e-08
0, 31, 0, 5.676120196085321e-08
0, 32, 0, 2.631984763468154e-08
0, 33, 0, 1.417234063438855e-08
0, 34, 0, 4.456842361832969e-08
0, 35, 0, 2.564426182516399e-08
0, 36, 0, 3.239335910620866e-08
0, 37, 0, 2.082520289548029e-08
0, 38, 0, 1.122244412954387e-07
0, 39, 0, 6.786547146475641e-08
0, 40, 0, 9.021827906963154e-08
0, 41, 0, 1.597961940547066e-08
0, 42, 0, 4.959806432225378e-08
0, 43, 0, 3.865601883035197e-08
0, 44, 0, 2.555282563321271e-08
0, 45, 0, 4.207881332263241e-08
0, 46, 0, 5.361693311556337e-08
0, 47, 0, 1.960721895954975e-08
0, 48, 0, 5.30446762070369e-08
0, 49, 0, 6.438090593974266e-08
0, 50, 0, 1.03157482556071e-08
0, 51, 0, 7.287257375310219e-08
0, 52, 0, 1.048023108296547e-07
0, 53, 0, 3.230785239338729e-08
0, 54, 0, 1.699068619132049e-08
0, 55, 0, 1.001305918180151e-07
0, 56, 0, 7.559769699128083e-08
0, 57, 0, 4.111275231366562e-08
0, 58, 0, 1.881673661330296e-08
0, 59, 0, 2.441815460940688e-08
0, 60, 0, 2.187752201621151e-08
0, 61, 0, 3.500923284605051e-08
0, 62, 0, 5.815229897621066e-08
0, 63, 0, 2.25086065341884e-08
0, 64, 0, 2.329413462121011e-08
0, 65, 0, 1.54667443297285e-08
0, 66, 0, 9.243180443263554e-08
0, 67, 0, 8.581782395822302e-09
0, 68, 0, 1.500885637994998e-08
0, 69, 0, 7.832544213215442e-08
0, 70, 0, 3.959493355409904e-08
0, 71, 0, 2.065762672032179e-08
0, 72, 0, 2.122427034123575e-08
0, 73, 0, 2.941508903120393e-08
0, 74, 0, 1.68285883006547e-08
0, 75, 0, 4.446005519298524e-08
0, 76, 0, 2.058207826394209e-08
0, 77, 0, 4.499198169582996e-08
0, 78, 0, 1.823597983729996e-08
0, 79, 0, 2.246816954709629e-08
0, 80, 0, 4.078488657910384e-08
0, 81, 0, 1.26399610778094e-08
0, 82, 0, 2.4182293500985e-08
0, 83, 0, 6.078974212897492e-09
0, 84, 0, 1.004199123855187e-08
0, 85, 0, 6.72294309111976e-09
0, 86, 0, 0
0, 87, 0, 1.471850819001475e-08
0, 88, 0, 0
0, 89, 0, 3.374045576265416e-08
0, 90, 0, 1.61272293297543e-08
0, 91, 0, 7.915916810929957e-09
0, 92, 0, 0
0, 93, 0, 0
0, 94, 0, 4.888169158334676e-08
0, 95, 0, 2.684523714435727e-08
0, 96, 0, 1.43799994134497e-08
0, 97, 0, 0
0, 98, 0, 7.755129871611643e-09
0, 99, 0, 0
1, 0, 0, 2.21233378283614e-08
1, 1, 0, 0
1, 2, 0, 0
1, 3, 0, 0
1, 4, 0, 3.056676689539017e-08
1, 5, 0, 1.424604079147684e-08
1, 6, 0, 1.380693070984762e-08
1, 7, 0, 2.64144883743711e-08
1, 8, 0, 2.523406372745285e-08
1, 9, 0, 1.090706547302034e-08
1, 10, 0, 1.61061972647758e-08
1, 11, 0, 1.781989844573673e-08
1, 12, 0, 2.04369996481546e-08
1, 13, 0, 1.745266864361383e-08
1, 14, 0, 8.776909865559901e-09
1, 15, 0, 3.219789590502842e-08
1, 16, 0, 3.27323270710167e-08
1, 17, 0, 7.082179109829667e-08
1, 18, 0, 0
1, 19, 0, 5.753874887659549e-08
1, 20, 0, 4.456153845922017e-08
1, 21, 0, 3.638779233483547e-08
1, 22, 0, 1.99411829271412e-08
1, 23, 0, 1.527179982474536e-08
1, 24, 0, 2.853082570197785e-08
1, 25, 0, 4.49306725158749e-08
1, 26, 0, 1.124814819064568e-08
1, 27, 0, 4.460265046191125e-08
1, 28, 0, 1.805316784952993e-08
1, 29, 0, 3.616530719341426e-08
1, 30, 0, 3.381428470561332e-08
1, 31, 0, 2.307199231665891e-08
1, 32, 0, 8.554441421892989e-08
1, 33, 0, 8.189204692143903e-08
1, 34, 0, 6.926173057308915e-08
1, 35, 0, 3.146178784163567e-08
1, 36, 0, 3.491153677259717e-08
1, 37, 0, 3.621855881874581e-08
1, 38, 0, 2.263192655505009e-08
1, 39, 0, 6.78739242587767e-09
1, 40, 0, 4.931347419301346e-08
1, 41, 0, 9.191811045639042e-08
1, 42, 0, 7.858955797246381e-08
1, 43, 0, 6.076076886074588e-08
1, 44, 0, 1.807785388052707e-08
1, 45, 0, 3.395751235757416e-08
1, 46, 0, 5.246325329721913e-08
1, 47, 0, 6.96914597142495e-08
1, 48, 0, 6.550099129754017e-08
1, 49, 0, 2.886823402548089e-08
1, 50, 0, 7.560680614915327e-08
1, 51, 0, 5.354572252258549e-08
1, 52, 0, 3.797532244220747e-08
1, 53, 0, 5.433699357126898e-08
1, 54, 0, 5.361928145930506e-08
1, 55, 0, 7.471337681863588e-08
1, 56, 0, 1.149469071037856e-07
1, 57, 0, 5.566758165542751e-09
1, 58, 0, 4.118446383927221e-08
1, 59, 0, 6.269271324299552e-08
1, 60, 0, 1.566200324987221e-08
1, 61, 0, 6.794533646825585e-08
1, 62, 0, 5.381270895554735e-08
1, 63, 0, 4.029241296166219e-08
1, 64, 0, 4.708135392661461e-08
1, 65, 0, 6.709142041927407e-08
1, 66, 0, 2.507316665401049e-08
1, 67, 0, 4.993656332885621e-08
1, 68, 0, 8.732270906364192e-09
1, 69, 0, 0
1, 70, 0, 1.723558895605493e-08
1, 71, 0, 6.567048416172838e-08
1, 72, 0, 4.698048172713243e-08
1, 73, 0, 5.563364879890287e-08
1, 74, 0, 6.76133424803993e-08
1, 75, 0, 2.967905743389565e-08
1, 76, 0, 2.981506597166117e-08
1, 77, 0, 9.188092064960074e-08
1, 78, 0, 2.755970740508928e-08
1, 79, 0, 2.625868766870099e-08
1, 80, 0, 4.538901876571799e-08
1, 81, 0, 3.548034044342785e-08
1, 82, 0, 5.812257697357381e-08
1, 83, 0, 3.705066120573974e-08
1, 84, 0, 4.560837751910185e-08
1, 85, 0, 2.631497508787106e-08
1, 86, 0, 1.236603353049759e-08
1, 87, 0, 2.433223222908509e-08
1, 88, 0, 0
1, 89, 0, 6.658183338004164e-08
1, 90, 0, 1.96962410825563e-08
1, 91, 0, 8.733695544549391e-09
1, 92, 0, 1.047661690734003e-08
1, 93, 0, 2.331484338924383e-08
1, 94, 0, 0
1, 95, 0, 5.834594141163052e-09
1, 96, 0, 0
1, 97, 0, 1.530613680245096e-08
1, 98, 0, 7.067439522501218e-09
1, 99, 0, 0
2, 0, 0, 5.735819819108201e-09
2, 1, 0, 1.445228559049383e-08
2, 2, 0, 2.295128531670798e-08
2, 3, 0, 1.618443867812402e-08
2, 4, 0, 2.961591505368233e-08
2, 5, 0, 1.339821054102686e-08
2, 6, 0, 1.437546792715239e-08
2, 7, 0, 0
2, 8, 0, 1.848831665540729e-08
2, 9, 0, 1.457573084451269e-08
2, 10, 0, 1.104161384546387e-08
2, 11, 0, 6.983985390007774e-09
2, 12, 0, 6.523895201837604e-09
2, 13, 0, 3.405053305982619e-08
2, 14, 0, 2.577570867856593e-08
2, 15, 0, 8.772626181041687e-09
2, 16, 0, 0
2, 17, 0, 3.37745369449749e-08
2, 18, 0, 4.818057419697652e-08
2, 19, 0, 9.5975183356245e-09
2, 20, 0, 3.968035500179212e-08
2, 21, 0, 4.886458881969702e-08
2, 22, 0, 4.522366481296558e-08
2, 23, 0, 3.061533249137938e-08
2, 24, 0, 7.875276430979739e-09
2, 25, 0, 7.121607836779731e-08
2, 26, 0, 4.187883462236641e-08
2, 27, 0, 1.690088602401829e-08
2, 28, 0, 7.827647863223319e-09
2, 29, 0, 3.542249160659594e-08
2, 30, 0, 3.217686384004992e-08
2, 31, 0, 3.412691995663408e-08
2, 32, 0, 2.369073470731564e-08
2, 33, 0, 4.492086702612141e-08
2, 34, 0, 4.608724779586737e-08
2, 35, 0, 5.232892874573736e-08
2, 36, 0, 2.535702670058981e-08
2, 37, 0, 4.968065780985853e-08
2, 38, 0, 8.717952937331575e-08
2, 39, 0, 3.475560106380726e-08
2, 40, 0, 8.94047786914598e-08
2, 41, 0, 5.051694884627977e-08
2, 42, 0, 1.168442835819405e-07
2, 43, 0, 8.748676805225841e-08
2, 44, 0, 5.023661842074034e-08
2, 45, 0, 6.843698230341033e-08
2, 46, 0, 5.24955510172731e-08
2, 47, 0, 6.461827695147804e-08
2, 48, 0, 1.901958768257828e-08
2, 49, 0, 6.067026703249212e-08
2, 50, 0, 1.415070904897675e-08
2, 51, 0, 5.148435278101715e-08
2, 52, 0, 8.985930577409817e-08
2, 53, 0, 1.525493473764072e-07
2, 54, 0, 6.161628363088312e-08
2, 55, 0, 6.061062407525242e-08
2, 56, 0, 1.147449069094364e-07
2, 57, 0, 5.014468484887402e-08
2, 58, 0, 7.092939569020018e-08
2, 59, 0, 2.924067565857058e-08
2, 60, 0, 1.136405032298171e-07
2, 61, 0, 1.30394340658313e-07
2, 62, 0, 8.267219442359419e-08
2, 63, 0, 5.05586399413005e-08
2, 64, 0, 4.060668601368889e-08
2, 65, 0, 1.692377082918028e-08
2, 66, 0, 4.354088289915126e-08
2, 67, 0, 7.663500412036228e-08
2, 68, 0, 5.006705450227855e-08
2, 69, 0, 6.153616993742617e-08
2, 70, 0, 2.704325474667257e-08
2, 71, 0, 5.067585107099148e-08
2, 72, 0, 5.728149687911355e-08
2, 73, 0, 1.059929033431217e-08
2, 74, 0, 3.37356063084826e-08
2, 75, 0, 1.82433481654698e-08
2, 76, 0, 3.206203302852373e-08
2, 77, 0, 6.969368637754769e-09
2, 78, 0, 1.787203096625944e-08
2, 79, 0, 2.914189423108837e-08
2, 80, 0, 1.1304897462594e-08
2, 81, 0, 4.338127013170379e-08
2, 82, 0, 2.408321186919693e-08
2, 83, 0, 3.308502982690698e-08
2, 84, 0, 3.634595913126759e-08
2, 85, 0, 0
2, 86, 0, 1.725160458931896e-08
2, 87, 0, 6.80856837576016e-09
2, 88, 0, 0
2, 89, 0, 7.220620545922429e-09
2, 90, 0, 2.09649080318286e-08
2, 91, 0, 1.46250496158018e-08
2, 92, 0, 1.627008394677887e-08
2, 93, 0, 2.209372418349176e-08
2, 94, 0, 7.78766118259e-09
2, 95, 0, 0
2, 96, 0, 7.932210444039356e-09
2, 97, 0, 2.076567007236463e-08
2, 98, 0, 7.522742428989204e-09
2, 99, 0, 6.203008329208615e-09
3, 0, 0, 2.183739056249578e-08
3, 1, 0, 0
3, 2, 0, 1.556935802504711e-09
3, 3, 0, 0
3, 4, 0, 0
3, 5, 0, 1.404330429721767e-08
3, 6, 0, 6.329784696390561e-09
3, 7, 0, 2.043552349562106e-08
3, 8, 0, 9.204884854341344e-09
3, 9, 0, 9.081230878393853e-09
3, 10, 0, 0
3, 11, 0, 3.527235037381615e-08
3, 12, 0, 0
3, 13, 0, 7.71787469489027e-08
3, 14, 0, 1.642357361220093e-08
3, 15, 0, 6.374109684514906e-09
3, 16, 0, 1.769217305991333e-08
3, 17, 0, 7.909389587723581e-09
3, 18, 0, 2.451913516665627e-08
3, 19, 0, 1.436301833024345e-08
3, 20, 0, 2.246019370488739e-08
3, 21, 0, 7.664686307862212e-08
3, 22, 0, 4.078203375001976e-08
3, 23, 0, 9.587084903728282e-09
3, 24, 0, 1.942056471193609e-08
3, 25, 0, 1.126458570865907e-07
3, 26, 0, 7.997662088143898e-09
3, 27, 0, 3.723076957840021e-08
3, 28, 0, 7.643070176754918e-08
3, 29, 0, 3.831794259667731e-08
3, 30, 0, 1.123049102602636e-07
3, 31, 0, 2.187275960352508e-08
3, 32, 0, 5.121248136674694e-08
3, 33, 0, 2.679452926201975e-08
3, 34, 0, 7.072127061746869e-08
3, 35, 0, 3.480967691871228e-08
3, 36, 0, 3.629533296134468e-08
3, 37, 0, 2.081292294064951e-08
3, 38, 0, 8.970948783826316e-08
3, 39, 0, 3.6097496547427e-08
3, 40, 0, 4.766580019577304e-08
3, 41, 0, 8.393596573341711e-08
3, 42, 0, 6.775321992336103e-08
3, 43, 0, 6.915426098430544e-08
3, 44, 0, 4.969539091348452e-08
3, 45, 0, 3.242852031348775e-08
3, 46, 0, 5.089755816811703e-08
3, 47, 0, 7.255622591628708e-08
3, 48, 0, 6.072066582873958e-08
3, 49, 0, 8.56498232337799e-08
3, 50, 0, 5.921425128008195e-08
3, 51, 0, 3.929291381155053e-08
3, 52, 0, 6.665285212648087e-08
3, 53, 0, 5.109983547413322e-08
3, 54, 0, 3.367795287090303e-08
3, 55, 0, 3.753949329166062e-08
3, 56, 0, 1.333603449893417e-07
3, 57, 0, 3.923972613506521e-08
3, 58, 0, 1.230146153829992e-07
3, 59, 0, 5.977866379680563e-08
3, 60, 0, 6.253657147681224e-08
3, 61, 0, 6.225567972251156e-08
3, 62, 0, 8.026034947761218e-08
3, 63, 0, 1.754361100836377e-08
3, 64, 0, 5.208116604649149e-08
3, 65, 0, 6.848841138662465e-08
3, 66, 0, 5.989511464576935e-08
3, 67, 0, 4.182639656846732e-08
3, 68, 0, 6.858961398847896e-08
3, 69, 0, 5.851605777706936e-08
3, 70, 0, 7.138169877407563e-08
3, 71, 0, 2.99595015462728e-08
3, 72, 0, 1.604314547876129e-08
3, 73, 0, 2.612929428380539e-08
3, 74, 0, 1.795979187591001e-08
3, 75, 0, 2.417840860857723e-08
3, 76, 0, 3.19660280467815e-08
3, 77, 0, 4.033734413155798e-08
3, 78, 0, 4.892834937209045e-08
3, 79, 0, 2.7546205316753e-08
3, 80, 0, 8.110816018813694e-09
3, 81, 0, 2.130316545390087e-08
3, 82, 0, 3.208569410162454e-08
3, 83, 0, 3.287522787331909e-08
3, 84, 0, 4.502398098793492e-08
3, 85, 0, 8.851612776084039e-09
3, 86, 0, 5.817931381102426e-08
3, 87, 0, 1.745441480238696e-08
3, 88, 0, 1.104099833781902e-08
3, 89, 0, 1.244806657751951e-08
3, 90, 0, 0
3, 91, 0, 1.327443399645745e-08
3, 92, 0, 3.303276940869182e-08
3, 93, 0, 6.494404125589881e-09
3, 94, 0, 0
3, 95, 0, 1.082665956886331e-08
3, 96, 0, 1.526750637026453e-08
3, 97, 0, 2.21699512081841e-08
3, 98, 0, 0
3, 99, 0, 1.62083146904024e-08
4, 0, 0, 1.337713317894895e-08
4, 1, 0, 0
4, 2, 0, 7.496578469101678e-09
4, 3, 0, 2.683110089662932e-08
4, 4, 0, 1.684254513634187e-08
4, 5, 0, 2.396833842510659e-08
4, 6, 0, 2.146918909318174e-08
4, 7, 0, 3.684689531269214e-08
4, 8, 0, 2.681251665137552e-08
4, 9, 0, 1.743330813042121e-08
4, 10, 0, 3.075346555192482e-08
4, 11, 0, 8.07161182336813e-09
4, 12, 0, 3.934244574566037e-08
4, 13, 0, 1.068732480291601e-08
4, 14, 0, 6.534466301388875e-09
4, 15, 0, 2.450124725328351e-08
4, 16, 0, 0
4, 17, 0, 1.265588078780411e-08
4, 18, 0, 4.745248816107051e-08
4, 19, 0, 1.453348019708756e-08
4, 20, 0, 3.331193809685828e-08
4, 21, 0, 2.313016267407875e-08
4, 22, 0, 0
4, 23, 0, 6.276338382349422e-08
4, 24, 0, 3.307213347625293e-08
4, 25, 0, 6.585490552879492e-08
4, 26, 0, 4.210044224350895e-08
4, 27, 0, 2.328609660651182e-08
4, 28, 0, 6.770203953010423e-08
4, 29, 0, 6.225947402072052e-08
4, 30, 0, 8.646970428571876e-08
4, 31, 0, 4.70481573699999e-08
4, 32, 0, 6.160159671253496e-08
4, 33, 0, 5.983842754631041e-08
4, 34, 0, 1.026844174134567e-07
4, 35, 0, 4.385096374903696e-08
4, 36, 0, 1.311076847088088e-08
4, 37, 0, 8.157867625868676e-08
4, 38, 0, 0
4, 39, 0, 5.608863773431949e-08
4, 40, 0, 3.601910592010427e-08
4, 41, 0, 9.889433982834817e-08
4, 42, 0, 5.905642552761492e-08
4, 43, 0, 1.535731115609451e-07
4, 44, 0, 9.067590411859783e-08
4, 45, 0, 3.297311579331108e-08
4, 46, 0, 3.749344656966969e-08
4, 47, 0, 4.441341516780994e-08
4, 48, 0, 6.588805234741812e-08
4, 49, 0, 3.662914949131846e-08
4, 50, 0, 2.949737565316468e-09
4, 51, 0, 2.979782465217795e-08
4, 52, 0, 5.988028561887404e-08
4, 53, 0, 3.900902356690494e-08
4, 54, 0, 5.18462606180492e-08
4, 55, 0, 7.217194308850594e-08
4, 56, 0, 7.428695880662417e-08
4, 57, 0, 8.617713831426954e-08
4, 58, 0, 8.447167232361608e-08
4, 59, 0, 7.421623138270661e-08
4, 60, 0, 5.316532991628264e-08
4, 61, 0, 8.556775554779961e-08
4, 62, 0, 6.55808065630481e-08
4, 63, 0, 5.748551146211867e-08
4, 64, 0, 6.525051077233002e-08
4, 65, 0, 2.106421703729211e-08
4, 66, 0, 9.402308620565236e-08
4, 67, 0, 6.851419698250538e-08
4, 68, 0, 5.371572342482978e-08
4, 69, 0, 4.281949728124346e-08
4, 70, 0, 6.765121440821531e-08
4, 71, 0, 1.580499642273026e-08
4, 72, 0, 0
4, 73, 0, 3.142483961937614e-08
4, 74, 0, 5.923686430264752e-08
4, 75, 0, 5.039636263859393e-08
4, 76, 0, 4.194751923591866e-08
4, 77, 0, 1.428735174613394e-08
4, 78, 0, 6.171108424268823e-08
4, 79, 0, 2.151774225467307e-08
4, 80, 0, 2.888051220395482e-08
4, 81, 0, 4.418688348550859e-08
4, 82, 0, 3.47789566035317e-08
4, 83, 0, 9.074941687003957e-09
4, 84, 0, 9.532034539461165e-08
4, 85, 0, 7.138721258570513e-08
4, 86, 0, 2.043259605954972e-08
4, 87, 0, 5.660553625830289e-08
4, 88, 0, 3.148815608255973e-08
4, 89, 0, 2.16133777541927e-08
4, 90, 0, 1.783641145891579e-08
4, 91, 0, 2.876231874893165e-08
4, 92, 0, 7.929625844838029e-09
4, 93, 0, 7.900818843609159e-08
4, 94, 0, 2.718817349034452e-08
4, 95, 0, 4.241041740016271e-09
4, 96, 0, 7.326868001200637e-09
4, 97, 0, 0
4, 98, 0, 5.031444061387447e-08
4, 99, 0, 9.566540448702199e-09
5, 0, 0, 3.474060861208272e-08
5, 1, 0, 1.771308255626991e-08
5, 2, 0, 6.150090658962881e-09
5, 3, 0, 7.654196387818502e-09
5, 4, 0, 1.530242066394294e-08
5, 5, 0, 7.750323050004226e-09
5, 6, 0, 3.11715417922187e-08
5, 7, 0, 3.92556316342052e-08
5, 8, 0, 1.911914715435614e-08
5, 9, 0, 2.853652603107548e-08
5, 10, 0, 1.973580054936974e-08
5, 11, 0, 4.045044121880892e-08
5, 12, 0, 3.068921827775739e-08
5, 13, 0, 8.561835329601308e-08
5, 14, 0, 4.71443506455671e-08
5, 15, 0, 3.138216086995271e-08
5, 16, 0, 2.422206257790549e-08
5, 17, 0, 4.92904916882253e-08
5, 18, 0, 2.92407982271925e-08
5, 19, 0, 1.945135075231974e-08
5, 20, 0, 6.936099339327484e-08
5, 21, 0, 2.639176166496782e-08
5, 22, 0, 8.666477668839434e-08
5, 23, 0, 2.410434696287211e-08
5, 24, 0, 5.395530422447337e-08
5, 25, 0, 3.418035632307692e-08
5, 26, 0, 4.208760273627377e-08
5, 27, 0, 4.116195739811701e-08
5, 28, 0, 6.284000164669123e-08
5, 29, 0, 6.707868749344925e-08
5, 30, 0, 2.540540577911088e-08
5, 31, 0, 7.918730915434935e-08
5, 32, 0, 5.353282617193145e-08
5, 33, 0, 1.077047286912602e-07
5, 34, 0, 4.120652974393124e-08
5, 35, 0, 3.690859884386555e-08
5, 36, 0, 6.435765698142859e-08
5, 37, 0, 1.575276940002368e-07
5, 38, 0, 3.470885445722161e-08
5, 39, 0, 1.188460316825513e-07
5, 40, 0, 1.069057944391716e-07
5, 41, 0, 3.822324501356889e-08
5, 42, 0, 8.340199997292075e-08
5, 43, 0, 6.060754031977922e-08
5, 44, 0, 8.104244386686332e-08
5, 45, 0, 9.664440625556381e-08
5, 46, 0, 3.400065295977583e-08
5, 47, 0, 5.338327824233602e-08
5, 48, 0, 1.012205217421069e-07
5, 49, 0, 6.502117599893609e-08
5, 50, 0, 1.259728179547892e-07
5, 51, 0, 6.508069816391071e-08
5, 52, 0, 8.076894175701455e-08
5, 53, 0, 9.133162848229404e-08
5, 54, 0, 9.930869993013403e-08
5, 55, 0, 1.09142654025618e-07
5, 56, 0, 1.057854959185534e-07
5, 57, 0, 1.08515685326438e-07
5, 58, 0, 1.451321338663547e-07
5, 59, 0, 1.076515872000527e-07
5, 60, 0, 4.009183740549815e-08
5, 61, 0, 6.285171849640392e-08
5, 62, 0, 7.550282532520214e-08
5, 63, 0, 7.145244751427526e-08
5, 64, 0, 6.194734680775582e-08
5, 65, 0, 8.637215387352626e-08
5, 66, 0, 7.018675063363844e-08
5, 67, 0, 3.234633894066974e-08
5, 68, 0, 2.981607849505963e-08
5, 69, 0, 1.656957060447439e-08
5, 70, 0, 3.634006162656078e-08
5, 71, 0, 6.128051666109968e-08
5, 72, 0, 7.276887714624536e-08
5, 73, 0, 1.038808150610748e-07
5, 74, 0, 2.890083017348388e-08
5, 75, 0, 7.751624053753403e-08
5, 76, 0, 1.835940643957201e-08
5, 77, 0, 3.477830645692848e-08
5, 78, 0, 2.25019292088291e-08
5, 79, 0, 6.332240332085348e-08
5, 80, 0, 3.956107619274007e-08
5, 81, 0, 2.539420584923846e-08
5, 82, 0, 2.701638202040613e-08
5, 83, 0, 2.967627565908515e-08
5, 84, 0, 3.791495473137729e-08
5, 85, 0, 3.822835736855268e-08
5, 86, 0, 3.208786480968229e-08
5, 87, 0, 1.651366687838163e-08
5, 88, 0, 2.64955826168034e-08
5, 89, 0, 3.997687514356585e-08
5, 90, 0, 2.958046430023842e-08
5, 91, 0, 7.949012115204823e-09
5, 92, 0, 2.772126705963274e-08
5, 93, 0, 1.806992955266651e-08
5, 94, 0, 0
5, 95, 0, 7.794790590764933e-09
5, 96, 0, 1.625291368156923e-08
5, 97, 0, 3.345217436390158e-08
5, 98, 0, 1.721205222793287e-08
5, 99, 0, 2.272310517525966e-08
6, 0, 0, 2.477028004932436e-08
6, 1, 0, 1.38496885071504e-08
6, 2, 0, 0
6, 3, 0, 3.233965273352624e-08
6, 4, 0, 0
6, 5, 0, 0
6, 6, 0, 6.023558540846352e-09
6, 7, 0, 5.012404358240019e-08
6, 8, 0, 5.085394860770975e-08
6, 9, 0, 1.722887255084515e-08
6, 10, 0, 1.581615194368169e-08
6, 11, 0, 4.022450994511928e-08
6, 12, 0, 2.086662043154774e-08
6, 13, 0, 2.126765075161074e-08
6, 14, 0, 5.86675312774787e-08
6, 15, 0, 2.759944806030035e-08
6, 16, 0, 3.782722046707931e-08
6, 17, 0, 3.342402266071076e-08
6, 18, 0, 1.004038452379064e-08
6, 19, 0, 1.019374593624889e-07
6, 20, 0, 1.641521940598523e-08
6, 21, 0, 6.006978736650126e-08
6, 22, 0, 5.929938140525337e-08
6, 23, 0, 4.269450926130958e-08
6, 24, 0, 1.622984058258226e-08
6, 25, 0, 3.258307756937029e-08
6, 26, 0, 6.005048192037066e-08
6, 27, 0, 5.46798339939869e-08
6, 28, 0, 4.487678850750854e-08
6, 29, 0, 4.142465925838223e-08
6, 30, 0, 3.765154943380367e-08
6, 31, 0, 8.130276540896375e-08
6, 32, 0, 5.208551101532066e-08
6, 33, 0, 7.459311035518112e-08
6, 34, 0, 4.426295063808539e-08
6, 35, 0, 5.372853806306921e-08
6, 36, 0, 8.175306476232436e-08
6, 37, 0, 4.425892186077363e-08
6, 38, 0, 5.027022353942812e-08
6, 39, 0, 5.80177719200492e-08
6, 40, 0, 4.529725927682193e-08
6, 41, 0, 9.699567726784153e-08
6, 42, 0, 8.223764069725803e-08
6, 43, 0, 3.415687999108741e-08
6, 44, 0, 1.386260919389315e-07
6, 45, 0, 1.214925759995822e-07
6, 46, 0, 8.215074132067457e-08
6, 47, 0, 5.969724270471488e-08
6, 48, 0, 1.129847078118473e-07
6, 49, 0, 1.720343760780452e-07
6, 50, 0, 2.128828668901406e-08
6, 51, 0, 8.01635664515743e-08
6, 52, 0, 3.208046805980302e-08
6, 53, 0, 7.405469659715891e-08
6, 54, 0, 9.687299495908519e-08
6, 55, 0, 1.473500930160299e-07
6, 56, 0, 5.317890128253566e-08
6, 57, 0, 1.03966755204965e-07
6, 58, 0, 8.838075871153706e-08
6, 59, 0, 1.23251041372896e-07
6, 60, 0, 3.973577733518141e-08
6, 61, 0, 6.118024487022922e-08
6, 62, 0, 1.191857368354476e-08
6, 63, 0, 8.138620444242406e-08
6, 64, 0, 4.73499781605824e-08
6, 65, 0, 1.331042085439549e-07
6, 66, 0, 7.94087640088037e-08
6, 67, 0, 8.376244409191713e-08
6, 68, 0, 4.447997170586859e-08
6, 69, 0, 8.559287323350873e-08
6, 70, 0, 3.569655504520597e-08
6, 71, 0, 5.435656191821181e-08
6, 72, 0, 4.152043686644902e-08
6, 73, 0, 5.928097834839718e-08
6, 74, 0, 5.251823864682592e-08
6, 75, 0, 2.135891818966229e-08
6, 76, 0, 8.131342355000015e-08
6, 77, 0, 7.677796531879721e-08
6, 78, 0, 7.590670492163554e-08
6, 79, 0, 6.210606073864255e-08
6, 80, 0, 8.622411229453064e-08
6, 81, 0, 4.176759560436949e-08
6, 82, 0, 3.19957749184141e-08
6, 83, 0, 1.767817181530518e-08
6, 84, 0, 2.580791402806426e-08
6, 85, 0, 2.245164765213303e-08
6, 86, 0, 1.647418557126912e-08
6, 87, 0, 5.056809371239979e-08
6, 88, 0, 4.681507626003167e-09
6, 89, 0, 4.960917010521371e-08
6, 90, 0, 7.876164609399439e-09
6, 91, 0, 1.256052817311115e-09
6, 92, 0, 7.728545803331599e-09
6, 93, 0, 8.907755422171704e-09
6, 94, 0, 7.515098765509265e-09
6, 95, 0, 0
6, 96, 0, 2.125781506379099e-08
6, 97, 0, 0
6, 98, 0, 2.733564841150837e-08
6, 99, 0, 1.62010334037177e-08
7, 0, 0, 2.931166953601405e-08
7, 1, 0, 6.491811088693566e-09
7, 2, 0, 0
7, 3, 0, 3.091724565251752e-08
7, 4, 0, 1.453715103849618e-08
7, 5, 0, 1.610829158948945e-08
7, 6, 0, 1.01320543066663e-08
7, 7, 0, 3.123463088172684e-08
7, 8, 0, 2.425770873060173e-08
7, 9, 0, 1.450205733277699e-08
7, 10, 0, 1.131014748523285e-08
7, 11, 0, 1.700642471291758e-08
7, 12, 0, 3.470585241416302e-08
7, 13, 0, 2.835885659635551e-08
7, 14, 0, 2.361372963832764e-08
7, 15, 0, 1.081483613774026e-08
7, 16, 0, 7.052997297307684e-09
7, 17, 0, 3.488968047804519e-08
7, 18, 0, 9.02928931623137e-08
7, 19, 0, 5.265051328251502e-08
7, 20, 0, 3.434086437437145e-08
7, 21, 0, 4.631493766282802e-08
7, 22, 0, 6.414919795361129e-08
7, 23, 0, 3.138537962854571e-08
7, 24, 0, 6.609606373331189e-08
7, 25, 0, 1.018295634480637e-07
7, 26, 0, 8.449296728940681e-08
7, 27, 0, 7.987942751697119e-08
7, 28, 0, 1.560975526615493e-08
7, 29, 0, 5.518483447986e-08
7, 30, 0, 5.967144289797943e-08
7, 31, 0, 1.999992704782017e-08
7, 32, 0, 6.851850287148409e-08
7, 33, 0, 9.476380569140019e-08
7, 34, 0, 5.631267541161833e-08
7, 35, 0, 5.242304013108878e-08
7, 36, 0, 8.842079779469714e-08
7, 37, 0, 1.175168335976196e-07
7, 38, 0, 1.001177309944978e-07
7, 39, 0, 7.253214562297217e-08
7, 40, 0, 1.073750226510128e-07
7, 41, 0, 7.008745939174332e-08
7, 42, 0, 3.812169424577405e-08
7, 43, 0, 1.411319630051366e-07
7, 44, 0, 5.809086900399052e-08
7, 45, 0, 8.089248382248115e-08
7, 46, 0, 9.920556465203845e-08
7, 47, 0, 6.838386923391226e-08
7, 48, 0, 1.053285672014681e-07
7, 49, 0, 1.032594241223705e-07
7, 50, 0, 8.6605240312565e-08
7, 51, 0, 1.001044083182023e-07
7, 52, 0, 8.473776347273088e-08
7, 53, 0, 7.193118989334835e-08
7, 54, 0, 1.125339395002811e-07
7, 55, 0, 1.059573122574875e-07
7, 56, 0, 1.432103999832179e-07
7, 57, 0, 6.959796650107819e-08
7, 58, 0, 6.674644481563519e-08
7, 59, 0, 7.90099790037857e-08
7, 60, 0, 5.760130150633813e-08
7, 61, 0, 9.179281335036649e-08
7, 62, 0, 6.614597936049904e-08
7, 63, 0, 6.682509479105647e-08
7, 64, 0, 3.519205904467526e-08
7, 65, 0, 7.621903108656625e-08
7, 66, 0, 6.017939568891961e-08
7, 67, 0, 3.92195502740833e-08
7, 68, 0, 9.393844635496862e-08
7, 69, 0, 6.627779924883725e-08
7, 70, 0, 9.155576741193272e-09
7, 71, 0, 6.51041958121823e-08
7, 72, 0, 7.172872784622086e-08
7, 73, 0, 1.053531928363327e-08
7, 74, 0, 2.757662187491405e-08
7, 75, 0, 6.9754555909185e-08
7, 76, 0, 6.634134308569628e-08
7, 77, 0, 8.731244349746703e-08
7, 78, 0, 1.320887932365622e-08
7, 79, 0, 8.478638591213894e-08
7, 80, 0, 3.902471945593788e-08
7, 81, 0, 2.092265383168979e-08
7, 82, 0, 3.507312840156374e-08
7, 83, 0, 5.841692640728979e-08
7, 84, 0, 3.346167787299237e-08
7, 85, 0, 4.925487573359533e-08
7, 86, 0, 7.743906849100313e-09
7, 87, 0, 5.265452074354471e-08
7, 88, 0, 3.463328113184616e-08
7, 89, 0, 7.035010352041127e-09
7, 90, 0, 7.616153929745906e-09
7, 91, 0, 3.919450364264776e-08
7, 92, 0, 1.620263212487316e-08
7, 93, 0, 6.643096295277928e-09
7, 94, 0, 2.763371220737554e-08
7, 95, 0, 7.159392634292772e-09
7, 96, 0, 9.587761695684094e-09
7, 97, 0, 0
7, 98, 0, 1.321310882929083e-08
7, 99, 0, 0
8, 0, 0, 2.295216283698664e-08
8, 1, 0, 0
8, 2, 0, 1.698296436813962e-08
8, 3, 0, 6.903459848217608e-08
8, 4, 0, 6.774957483912658e-09
8, 5, 0, 6.775506822265243e-09
8, 6, 0, 6.434959232137771e-08
8, 7, 0, 1.139877614519946e-08
8, 8, 0, 1.51130894465723e-08
8, 9, 0, 0
8, 10, 0, 4.232782657709322e-08
8, 11, 0, 4.009940113292032e-08
8, 12, 0, 4.265892172838903e-08
8, 13, 0, 2.097137397072402e-08
8, 14, 0, 1.511508962437347e-08
8, 15, 0, 4.448184043326364e-08
8, 16, 0, 2.936472220937958e-08
8, 17, 0, 2.360451745175851e-08
8, 18, 0, 3.618639254909795e-08
8, 19, 0, 6.546667918883031e-08
8, 20, 0, 4.291803890055235e-08
8, 21, 0, 1.158589668648347e-07
8, 22, 0, 5.701447136630122e-08
8, 23, 0, 7.773542165523395e-08
8, 24, 0, 4.973740530545001e-08
8, 25, 0, 4.743254322647772e-08
8, 26, 0, 6.530158458417645e-08
8, 27, 0, 6.298319021880161e-08
8, 28, 0, 5.397957281161325e-08
8, 29, 0, 4.760954297466924e-08
8, 30, 0, 5.056243779222314e-08
8, 31, 0, 9.922632671077736e-08
8, 32, 0, 8.546784613372438e-08
8, 33, 0, 7.070141805343155e-08
8, 34, 0, 1.458734715242826e-07
8, 35, 0, 1.209096041066005e-07
8, 36, 0, 1.206683890586646e-07
8, 37, 0, 4.142104259585722e-08
8, 38, 0, 1.221806371631828e-07
8, 39, 0, 1.396302877765265e-07
8, 40, 0, 7.785474309685014e-08
8, 41, 0, 1.285134203499183e-07
8, 42, 0, 1.558341580221168e-07
8, 43, 0, 1.083490417386201e-07
8, 44, 0, 7.990763606358087e-08
8, 45, 0, 7.183790984299776e-08
8, 46, 0, 8.721228539343429e-08
8, 47, 0, 9.843871140446936e-08
8, 48, 0, 5.235450473151104e-08
8, 49, 0, 9.96600633129674e-08
8, 50, 0, 1.131841429469205e-07
8, 51, 0, 7.738801599543876e-08
8, 52, 0, 1.151419084521876e-07
8, 53, 0, 7.916205646552044e-08
8, 54, 0, 7.976407090382054e-08
8, 55, 0, 6.357163329084869e-08
8, 56, 0, 1.094277948254785e-07
8, 57, 0, 1.041820922864645e-07
8, 58, 0, 9.33230950295183e-08
8, 59, 0, 9.04006682844738e-08
8, 60, 0, 5.498559119132551e-08
8, 61, 0, 1.270369125450088e-07
8, 62, 0, 7.421682823860465e-08
8, 63, 0, 7.337261820339336e-08
8, 64, 0, 7.130471857408338e-08
8, 65, 0, 5.227428090393005e-08
8, 66, 0, 6.340314939734526e-08
8, 67, 0, 1.425556632739244e-07
8, 68, 0, 1.007516701179156e-07
8, 69, 0, 7.949666525064458e-08
8, 70, 0, 1.734194654545718e-08
8, 71, 0, 5.928446711322977e-08
8, 72, 0, 1.135961227305415e-07
8, 73, 0, 6.270987285006413e-08
8, 74, 0, 5.670506908472817e-08
8, 75, 0, 4.113013929440967e-08
8, 76, 0, 9.826544555835426e-08
8, 77, 0, 4.083323545955864e-08
8, 78, 0, 6.144378517092264e-08
8, 79, 0, 7.29323659243164e-08
8, 80, 0, 4.117259777558502e-08
8, 81, 0, 4.934617692242682e-08
8, 82, 0, 2.847268376626744e-08
8, 83, 0, 2.314628666510998e-08
8, 84, 0, 6.952858910835857e-08
8, 85, 0, 3.089827060875905e-08
8, 86, 0, 4.23396109283658e-08
8, 87, 0, 1.769419277763973e-08
8, 88, 0, 6.580255895727305e-09
8, 89, 0, 2.668370591152325e-08
8, 90, 0, 1.145625994070087e-08
8, 91, 0, 2.487774075632387e-08
8, 92, 0, 5.888433207701382e-08
8, 93, 0, 9.605108708399257e-09
8, 94, 0, 1.393662696358433e-08
8, 95, 0, 2.150500044706405e-08
8, 96, 0, 1.80863040100121e-08
8, 97, 0, 0
8, 98, 0, 7.684511693639706e-09
8, 99, 0, 1.635383384268607e-08
9, 0, 0, 4.712918766358598e-08
9, 1, 0, 0
9, 2, 0, 4.655356988791937e-08
9, 3, 0, 2.016449052177904e-08
9, 4, 0, 0
9, 5, 0, 2.850930513886851e-08
9, 6, 0, 1.504423963183399e-08
9, 7, 0, 1.615774181118468e-08
9, 8, 0, 3.095724565582714e-08
9, 9, 0, 4.334954084583842e-08
9, 10, 0, 3.272898752015863e-08
9, 11, 0, 2.140512833648245e-08
9, 12, 0, 1.645642910830247e-08
9, 13, 0, 9.753675200840917e-09
9, 14, 0, 3.541970272635808e-08
9, 15, 0, 3.509714829874611e-08
9, 16, 0, 2.789096242850064e-08
9, 17, 0, 4.008064991012361e-08
9, 18, 0, 6.231901039654986e-08
9, 19, 0, 3.303700424339695e-08
9, 20, 0, 3.864540687459339e-08
9, 21, 0, 6.939459495924893e-08
9, 22, 0, 5.290839766303179e-08
9, 23, 0, 4.552751420305867e-08
9, 24, 0, 2.311565161505769e-08
9, 25, 0, 5.478736042618948e-08
9, 26, 0, 6.940532415455891e-08
9, 27, 0, 1.140181353775915e-07
9, 28, 0, 1.28869857007885e-07
9, 29, 0, 1.713694963711987e-08
9, 30, 0, 3.702474060673921e-08
9, 31, 0, 5.087415644311477e-08
9, 32, 0, 1.010555408242908e-07
9, 33, 0, 1.245219749534954e-07
9, 34, 0, 1.057427994055615e-07
9, 35, 0, 2.128162606140904e-07
9, 36, 0, 4.910843998118253e-08
9, 37, 0, 8.498078329921555e-08
9, 38, 0, 1.62280969107087e-07
9, 39, 0, 1.119367567525842e-07
9, 40, 0, 1.143822387916771e-07
9, 41, 0, 5.602591457432027e-08
9, 42, 0, 1.169826333580204e-07
9, 43, 0, 1.015780313196046e-07
9, 44, 0, 8.642059867725038e-08
9, 45, 0, 1.485175715743026e-07
9, 46, 0, 1.7984616818012e-07
9, 47, 0, 1.190878506918125e-07
9, 48, 0, 1.239351803405953e-07
9, 49, 0, 7.65074688047207e-08
9, 50, 0, 1.762925165849083e-07
9, 51, 0, 1.035442664942821e-07
9, 52, 0, 1.537535325724093e-07
9, 53, 0, 1.14265382933354e-07
9, 54, 0, 1.405457368264251e-07
9, 55, 0, 1.026886309318797e-07
9, 56, 0, 6.642497396569524e-08
9, 57, 0, 1.395311528540333e-07
9, 58, 0, 1.004743026555843e-07
9, 59, 0, 8.940696005765858e-08
9, 60, 0, 1.443961679115091e-07
9, 61, 0, 1.534057361141095e-07
9, 62, 0, 1.368020150493976e-07
9, 63, 0, 1.166943661701225e-07
9, 64, 0, 6.001293684221309e-08
9, 65, 0, 1.093474182312093e-07
9, 66, 0, 5.153409432523404e-08
9, 67, 0, 7.247032840496104e-08
9, 68, 0, 8.887041502703141e-08
9, 69, 0, 1.005782905849628e-07
9, 70, 0, 1.020213460378727e-07
